omega:    0.500000
   rho:            u1:                u2:                 u3:
0.020000000   2.397613015E-05   5.415128738E-05   8.404671957E-05
0.040000000   9.774581866E-05   0.0002205972812   0.0003421198303
0.060000000   0.0002240051969   0.0005049119101   0.0007820577237
0.080000000   0.0004053534322   0.0009120775874    0.001410198798
0.10000000   0.0006442814049    0.001446438983    0.002231285769
0.12000000   0.0009431606559    0.002111660371    0.003248384035
0.14000000    0.001304232652    0.002910686887    0.004462815089
0.16000000    0.001729598421    0.003845710027    0.005874105842
0.18000000    0.002221208597    0.004918137660    0.007479954571
0.20000000    0.002780853928    0.006128568823    0.009276214038
0.22000000    0.003410156283    0.007476773539     0.01125689216
0.24000000    0.004110560205    0.008961677827     0.01341417046
0.26000000    0.004883325047     0.01058135409     0.01573844029
0.28000000    0.005729517727     0.01233301698     0.01821835675
0.30000000    0.006650006134     0.01421302486     0.02084090996
0.32000000    0.007645453224     0.01621688687     0.02359151311
0.34000000    0.008716311826     0.01833927563     0.02645410679
0.36000000    0.009862820188     0.02057404554     0.02941127864
0.38000000     0.01108499828     0.02291425661     0.03244439733
0.40000000     0.01238264490     0.02535220370     0.03553375983
0.42000000     0.01375533552     0.02787945104     0.03865875059
0.44000000     0.01520242101     0.03048687185     0.04179801131
0.46000000     0.01672302711     0.03316469275     0.04492961966
0.48000000     0.01831605480     0.03590254286     0.04803127552
0.50000000     0.01998018140     0.03868950717     0.05108049284
0.52000000     0.02171386256     0.04151418388     0.05405479547
0.54000000     0.02351533502     0.04436474543     0.05693191517
0.56000000     0.02538262022     0.04722900278     0.05968998978
0.58000000     0.02731352863     0.05009447249     0.06230775994
0.60000000     0.02930566494     0.05294844636     0.06476476228
0.62000000     0.03135643393     0.05577806298     0.06704151733
0.64000000     0.03346304709     0.05857038085     0.06911971042
0.66000000     0.03562252997     0.06131245261     0.07098236373
0.68000000     0.03783173021     0.06399139983     0.07261399788
0.70000000     0.04008732614     0.06659448799     0.07400078154
0.72000000     0.04238583605     0.06910920108     0.07513066749
0.74000000     0.04472362807     0.07152331534     0.07599351392
0.76000000     0.04709693046     0.07382497172     0.07658118974
0.78000000     0.04950184248     0.07600274664     0.07688766273
0.80000000     0.05193434573     0.07804572039     0.07690906988
0.82000000     0.05439031576     0.07994354296     0.07664376895
0.84000000     0.05686553420     0.08168649681     0.07609237086
0.86000000     0.05935570105     0.08326555610     0.07525775249
0.88000000     0.06185644733     0.08467244204     0.07414504968
0.90000000     0.06436334789     0.08589967415     0.07276163045
0.92000000     0.06687193434     0.08694061688     0.07111704868
0.94000000     0.06937770818     0.08778952144     0.06922297851
0.96000000     0.07187615393     0.08844156255     0.06709313002
0.98000000     0.07436275221     0.08889286995     0.06474314704
 1.0000000     0.07683299290     0.08914055429     0.06219048781
 1.0200000     0.07928238811     0.08918272746     0.05945428959
 1.0400000     0.08170648500     0.08901851718     0.05655521848
 1.0600000     0.08410087852     0.08864807567     0.05351530564
 1.0800000     0.08646122375     0.08807258246     0.05035777147
 1.1000000     0.08878324812     0.08729424140     0.04710683925
 1.1200000     0.09106276315     0.08631627171     0.04378753993
 1.1400000     0.09329567600     0.08514289332     0.04042550973
 1.1600000     0.09547800043     0.08377930655     0.03704678237
 1.1800000     0.09760586745     0.08223166626     0.03367757784
 1.2000000     0.09967553547     0.08050705064     0.03034408939
 1.2200000      0.1016833999     0.07861342496     0.02707227080
 1.2400000      0.1036260021     0.07655960032     0.02388762559
 1.2600000      0.1055000383     0.07435518790     0.02081500026
 1.2800000      0.1073023671     0.07201054886     0.01787838304
 1.3000000      0.1090300169     0.06953674023     0.01510071009
 1.3200000      0.1106801926     0.06694545722     0.01250368083
 1.3400000      0.1122502820     0.06424897221     0.01010758372
 1.3600000      0.1137378605     0.06146007089    0.007931134291
 1.3800000      0.1151406963     0.05859198589    0.005991326439
 1.4000000      0.1164567544     0.05565832831    0.004303298476
 1.4200000      0.1176841998     0.05267301763    0.002880214837
 1.4400000      0.1188214003     0.04965021037    0.001733164460
 1.4600000      0.1198669283     0.04660422786   0.0008710765946
 1.4800000      0.1208195626     0.04354948375   0.0003006546656
 1.5000000      0.1216782884     0.04050041143   2.632865136E-05
 1.5200000      0.1224422978     0.03747139197   5.022626198E-05
 1.5400000      0.1231109890     0.03447668289   0.0003721630465
 1.5600000      0.1236839648     0.03153034823   0.0009896513863
 1.5800000      0.1241610310     0.02864619020    0.001897928167
 1.6000000      0.1245421937     0.02583768287    0.003090000764
 1.6200000      0.1248276566     0.02311790825    0.004556710820
 1.6400000      0.1250178166     0.02049949506    0.006286815133
 1.6600000      0.1251132604     0.01799456046    0.008267082865
 1.6800000      0.1251147595     0.01561465514     0.01048240810
 1.7000000      0.1250232649     0.01337071195     0.01291593670
 1.7200000      0.1248399018     0.01127299831     0.01554920628
 1.7400000      0.1245659636    0.009331072674     0.01836229803
 1.7600000      0.1242029051    0.007553745142     0.02133399898
 1.7800000      0.1237523361    0.005949042452     0.02444197337
 1.8000000      0.1232160144    0.004524177443     0.02766294148
 1.8200000      0.1225958378    0.003285523089     0.03097286456
 1.8400000      0.1218938373    0.002238591176     0.03434713408
 1.8600000      0.1211121686    0.001388015669     0.03776076391
 1.8800000      0.1202531043   0.0007375407646     0.04118858373
 1.9000000      0.1193190258   0.0002900136288     0.04460543207
 1.9200000      0.1183124146   4.738176775E-05     0.04798634752
 1.9400000      0.1172358441   1.069496143E-05     0.05130675647
 1.9600000      0.1160919711   0.0001801116676     0.05454265605
 1.9800000      0.1148835272   0.0005549097753     0.05767079074
 2.0000000      0.1136133102    0.001133501566     0.06066882140
 2.0200000      0.1122841758    0.001913452717     0.06351548545
 2.0400000      0.1108990289    0.002891505167     0.06619074702
 2.0600000      0.1094608154    0.004063603639     0.06867593606
 2.0800000      0.1079725136    0.005424925602     0.07095387543
 2.1000000      0.1064371268    0.006969914439     0.07300899519
 2.1200000      0.1048576745    0.008692315582     0.07482743330
 2.1400000      0.1032371852     0.01058521534     0.07639712222
 2.1600000      0.1015786883     0.01264108218     0.07770786090
 2.1800000     0.09988520737     0.01485181015     0.07875137186
 2.2000000     0.09815975246     0.01720876421     0.07952134310
 2.2200000     0.09640531353     0.01970282714     0.08001345484
 2.2400000     0.09462485377     0.02232444781     0.08022539105
 2.2600000     0.09282130327     0.02506369041     0.08015683597
 2.2800000     0.09099755306     0.02791028451     0.07980945593
 2.3000000     0.08915644932     0.03085367554     0.07918686683
 2.3200000     0.08730078806     0.03388307550     0.07829458772
 2.3400000     0.08543331001     0.03698751355     0.07713998127
 2.3600000     0.08355669589     0.04015588633     0.07573218160
 2.3800000     0.08167356199     0.04337700770     0.07408201040
 2.4000000     0.07978645611     0.04663965755     0.07220188209
 2.4200000     0.07789785380     0.04993262975     0.07010569906
 2.4400000     0.07601015500     0.05324477866     0.06780873788
 2.4600000     0.07412568094     0.05656506427     0.06532752750
 2.4800000     0.07224667144     0.05988259569     0.06267972057
 2.5000000     0.07037528248     0.06318667276     0.05988395893
 2.5200000     0.06851358416     0.06646682570     0.05695973445
 2.5400000     0.06666355895     0.06971285269     0.05392724621
 2.5600000     0.06482710023     0.07291485511     0.05080725531
 2.5800000     0.06300601115     0.07606327048     0.04762093832
 2.6000000     0.06120200386     0.07914890295     0.04438974049
 2.6200000     0.05941669888     0.08216295122     0.04113522987
 2.6400000     0.05765162489     0.08509703396     0.03787895321
 2.6600000     0.05590821873     0.08794321248     0.03464229485
 2.6800000     0.05418782563     0.09069401087     0.03144633943
 2.7000000     0.05249169972     0.09334243337     0.02831173925
 2.7200000     0.05082100481     0.09588197914     0.02525858734
 2.7400000     0.04917681529     0.09830665435     0.02230629680
 2.7600000     0.04756011733      0.1006109817     0.01947348717
 2.7800000     0.04597181024      0.1027900072     0.01677787857
 2.8000000     0.04441270803      0.1048393047     0.01423619398
 2.8200000     0.04288354107      0.1067549778     0.01186407035
 2.8400000     0.04138495804      0.1085336594    0.009675978732
 2.8600000     0.03991752788      0.1101725087    0.007685153912
 2.8800000     0.03848174199      0.1116692069    0.005903533723
 2.9000000     0.03707801643      0.1130219494    0.004341708197
 2.9200000     0.03570669437      0.1142294377    0.003008878650
 2.9400000     0.03436804846      0.1152908676    0.001912826728
 2.9600000     0.03306228344      0.1162059176    0.001059893331
 2.9800000     0.03178953872      0.1169747337   0.0004549672871
 3.0000000     0.03054989106      0.1175979147   0.0001014835908
 3.0200000     0.02934335724      0.1180764944   1.430926948E-06
 3.0400000     0.02816989686      0.1184119240   0.0001553681705
 3.0600000     0.02702941508      0.1186060522   0.0005624494850
 3.0800000     0.02592176538      0.1186611053    0.001220457594
 3.1000000     0.02484675241      0.1185796661    0.002125844763
 3.1200000     0.02380413469      0.1183646520    0.003273780972
 3.1400000     0.02279362747      0.1180192928    0.004658208752
 3.1600000     0.02181490538      0.1175471081    0.006271904110
 3.1800000     0.02086760522      0.1169518839    0.008106542936
 3.2000000     0.01995132861      0.1162376497     0.01015277230
 3.2200000     0.01906564465      0.1154086552     0.01240028601
 3.2400000     0.01821009247      0.1144693470     0.01483790378
 3.2600000     0.01738418381      0.1134243455     0.01745365340
 3.2800000     0.01658740546      0.1122784222     0.02023485527
 3.3000000     0.01581922171      0.1110364770     0.02316820864
 3.3200000     0.01507907664      0.1097035164     0.02623987900
 3.3400000     0.01436639643      0.1082846318     0.02943558597
 3.3600000     0.01368059157      0.1067849787     0.03274069112
 3.3800000     0.01302105892      0.1052097562     0.03614028523
 3.4000000     0.01238718380      0.1035641876     0.03961927430
 3.4200000     0.01177834193      0.1018535014     0.04316246399
 3.4400000     0.01119390129      0.1000829136     0.04675464190
 3.4600000     0.01063322393     0.09825761039     0.05038065732
 3.4800000     0.01009566765     0.09638273184     0.05402549792
 3.5000000    0.009580587628     0.09446335684     0.05767436323
 3.5200000    0.009087337952     0.09250448857     0.06131273436
 3.5400000    0.008615273064     0.09051104120     0.06492643978
 3.5600000    0.008163749118     0.08848782749     0.06850171692
 3.5800000    0.007732125258     0.08643954731     0.07202526930
 3.6000000    0.007319764811     0.08437077729     0.07548431908
 3.6200000    0.006926036401     0.08228596133     0.07886665485
 3.6400000    0.006550314974     0.08018940213     0.08216067459
 3.6600000    0.006191982757     0.07808525368     0.08535542370
 3.6800000    0.005850430132     0.07597751471     0.08844062812
 3.7000000    0.005525056436     0.07387002301     0.09140672249
 3.7200000    0.005215270692     0.07176645068     0.09424487340
 3.7400000    0.004920492268     0.06967030031     0.09694699783
 3.7600000    0.004640151463     0.06758490187     0.09950577683
 3.7800000    0.004373690041     0.06551341055      0.1019146646
 3.8000000    0.004120561688     0.06345880527      0.1041678931
 3.8200000    0.003880232415     0.06142388798      0.1062604721
 3.8400000    0.003652180905     0.05941128367      0.1081881860
 3.8600000    0.003435898804     0.05742344102      0.1099475851
 3.8800000    0.003230890956     0.05546263365      0.1115359749
 3.9000000    0.003036675594     0.05353096200      0.1129514010
 3.9200000    0.002852784482     0.05163035575      0.1141926308
 3.9400000    0.002678763012     0.04976257670      0.1152591324
 3.9600000    0.002514170261     0.04792922212      0.1161510511
 3.9800000    0.002358579007     0.04613172857      0.1168691825
 4.0000000    0.002211575713     0.04437137600      0.1174149446
 4.0200000    0.002072760470     0.04264929232      0.1177903474
 4.0400000    0.001941746920     0.04096645813      0.1179979602
 4.0600000    0.001818162136     0.03932371179      0.1180408791
 4.0800000    0.001701646489     0.03772175474      0.1179226917
 4.1000000    0.001591853478     0.03616115692      0.1176474419
 4.1200000    0.001488449551     0.03464236244      0.1172195936
 4.1400000    0.001391113895     0.03316569530      0.1166439947
 4.1600000    0.001299538215     0.03173136523      0.1159258395
 4.1800000    0.001213426493     0.03033947358      0.1150706328
 4.2000000    0.001132494735     0.02899001930      0.1140841529
 4.2200000    0.001056470702     0.02768290480      0.1129724157
 4.2400000   0.0009850936393     0.02641794194      0.1117416391
 4.2600000   0.0009181139863     0.02519485786      0.1103982086
 4.2800000   0.0008552930836     0.02401330082      0.1089486427
 4.3000000   0.0007964028747     0.02287284590      0.1073995610
 4.3200000   0.0007412256011     0.02177300067      0.1057576520
 4.3400000   0.0006895534947     0.02071321066      0.1040296425
 4.3600000   0.0006411884676     0.01969286476      0.1022222693
 4.3800000   0.0005959418010     0.01871130048      0.1003422509
 4.4000000   0.0005536338334     0.01776780895     0.09839626176
 4.4200000   0.0005140936500     0.01686163991     0.09639090766
 4.4400000   0.0004771587734     0.01599200642     0.09433270286
 4.4600000   0.0004426748567     0.01515808936     0.09222804877
 4.4800000   0.0004104953799     0.01435904189     0.09008321432
 4.5000000   0.0003804813496     0.01359399352     0.08790431801
 4.5200000   0.0003525010040     0.01286205415     0.08569731163
 4.5400000   0.0003264295217     0.01216231781     0.08346796558
 4.5600000   0.0003021487366     0.01149386626     0.08122185589
 4.5800000   0.0002795468583     0.01085577232     0.07896435279
 4.6000000   0.0002585181989     0.01024710309     0.07670061085
 4.6200000   0.0002389629057    0.009666922892     0.07443556072
 4.6400000   0.0002207867016    0.009114296051     0.07217390222
 4.6600000   0.0002039006314    0.008588289495     0.06992009897
 4.6800000   0.0001882208161    0.008087975141     0.06767837433
 4.7000000   0.0001736682138    0.007612432106     0.06545270863
 4.7200000   0.0001601683887    0.007160748735     0.06324683765
 4.7400000   0.0001476512870    0.006732024462     0.06106425231
 4.7600000   0.0001360510206    0.006325371489     0.05890819936
 4.7800000   0.0001253056578    0.005939916312     0.05678168319
 4.8000000   0.0001153570228    0.005574801080     0.05468746852
 4.8200000   0.0001061505009    0.005229184815     0.05262808402
 4.8400000   9.763485245E-05    0.004902244474     0.05060582669
 4.8600000   8.976203379E-05    0.004593175886     0.04862276697
 4.8800000   8.248702501E-05    0.004301194545     0.04668075456
 4.9000000   7.576766533E-05    0.004025536292     0.04478142474
 4.9200000   6.956449522E-05    0.003765457870     0.04292620530
 4.9400000   6.384060540E-05    0.003520237377     0.04111632381
 4.9600000   5.856149261E-05    0.003289174603     0.03935281538
 4.9800000   5.369492183E-05    0.003071591288     0.03763653067
 5.0000000   4.921079491E-05    0.002866831271     0.03596814416
 5.0200000   4.508102542E-05    0.002674260572     0.03434816267
 5.0400000   4.127941944E-05    0.002493267383     0.03277693398
 5.0600000   3.778156225E-05    0.002323261995     0.03125465553
 5.0800000   3.456471063E-05    0.002163676661     0.02978138326
 5.1000000   3.160769060E-05    0.002013965393     0.02835704032
 5.1200000   2.889080047E-05    0.001873603710     0.02698142583
 5.1400000   2.639571890E-05    0.001742088336     0.02565422355
 5.1600000   2.410541787E-05    0.001618936856     0.02437501041
 5.1800000   2.200408035E-05    0.001503687326     0.02314326488
 5.2000000   2.007702243E-05    0.001395897860     0.02195837520
 5.2200000   1.831061984E-05    0.001295146179     0.02081964742
 5.2400000   1.669223848E-05    0.001201029136     0.01972631314
 5.2600000   1.521016904E-05    0.001113162223     0.01867753709
 5.2800000   1.385356532E-05    0.001031179051     0.01767242438
 5.3000000   1.261238613E-05   0.0009547308301     0.01671002752
 5.3200000   1.147734068E-05   0.0008834858201     0.01578935313
 5.3400000   1.043983722E-05   0.0008171287879     0.01490936833
 5.3600000   9.491934811E-06   0.0007553604508     0.01406900688
 5.3800000   8.626297971E-06   0.0006978969190     0.01326717495
 5.4000000   7.836154242E-06   0.0006444691368     0.01250275660
 5.4200000   7.115254344E-06   0.0005948223255     0.01177461896
 5.4400000   6.457834866E-06   0.0005487154294     0.01108161706
 5.4600000   5.858583358E-06   0.0005059205660     0.01042259838
 5.4800000   5.312605667E-06   0.0004662224833    0.009796407052
 5.5000000   4.815395410E-06   0.0004294180255    0.009201887809
 5.5200000   4.362805467E-06   0.0003953156067    0.008637889588
 5.5400000   3.951021361E-06   0.0003637346956    0.008103268863
 5.5600000   3.576536439E-06   0.0003345053115    0.007596892690
 5.5800000   3.236128736E-06   0.0003074675320    0.007117641482
 5.6000000   2.926839416E-06   0.0002824710134    0.006664411507
 5.6200000   2.645952716E-06   0.0002593745250    0.006236117143
 5.6400000   2.390977284E-06   0.0002380454966    0.005831692884
 5.6600000   2.159628822E-06   0.0002183595805    0.005450095104
 5.6800000   1.949813978E-06   0.0002002002278    0.005090303611
 5.7000000   1.759615379E-06   0.0001834582794    0.004751322981
 5.7200000   1.587277743E-06   0.0001680315720    0.004432183694
 5.7400000   1.431195016E-06   0.0001538245586    0.004131943085
 5.7600000   1.289898437E-06   0.0001407479438    0.003849686110
 5.7800000   1.162045492E-06   0.0001287183342    0.003584525954
 5.8000000   1.046409699E-06   0.0001176579031    0.003335604481
 5.8200000   9.418711473E-07   0.0001074940695    0.003102092541
 5.8400000   8.474077617E-07   9.815919160E-05    0.002883190147
 5.8600000   7.620872322E-07   8.959027393E-05    0.002678126522
 5.8800000   6.850595620E-07   8.172868838E-05    0.002486160045
 5.9000000   6.155501935E-07   7.451990843E-05    0.002306578087
 5.9200000   5.528536705E-07   6.791325635E-05    0.002138696756
 5.9400000   4.963277981E-07   6.186166306E-05    0.001981860563
 5.9600000   4.453882647E-07   5.632144026E-05    0.001835442004
 5.9800000   3.995036921E-07   5.125206439E-05    0.001698841088
 6.0000000   3.581910831E-07   4.661597205E-05    0.001571484793
 6.0200000   3.210116365E-07   4.237836649E-05    0.001452826484
 6.0400000   2.875669025E-07   3.850703478E-05    0.001342345273
 6.0600000   2.574952524E-07   3.497217514E-05    0.001239545357
 6.0800000   2.304686398E-07   3.174623419E-05    0.001143955310
 6.1000000   2.061896300E-07   2.880375353E-05    0.001055127361
 6.1200000   1.843886769E-07   2.612122537E-05   0.0009726366421
