omega:    0.0100000
   rho:            u1:                u2:                 u3:
0.025000000   0.0007301575214   -0.001909469719   -0.003294615097
0.050000000    0.001478185308   -0.003864082103   -0.006662871160
0.075000000    0.002243913676   -0.005861746034    -0.01009676928
0.10000000    0.003027162226   -0.007900294477    -0.01358807008
0.12500000    0.003827739871   -0.009977486959    -0.01712831400
0.15000000    0.004645444874    -0.01209101214    -0.02070884233
0.17500000    0.005480064882    -0.01423849053    -0.02432081881
0.20000000    0.006331376975    -0.01641747724    -0.02795525189
0.22500000    0.007199147715    -0.01862546494    -0.03160301739
0.25000000    0.008083133206    -0.02085988679    -0.03525488178
0.27500000    0.008983079153    -0.02311811961    -0.03890152568
0.30000000    0.009898720931    -0.02539748700    -0.04253356789
0.32500000     0.01082978366    -0.02769526265    -0.04614158957
0.35000000     0.01177598229    -0.03000867369    -0.04971615866
0.37500000     0.01273702168    -0.03233490412    -0.05324785452
0.40000000     0.01371259668    -0.03467109831    -0.05672729258
0.42500000     0.01470239225    -0.03701436463    -0.06014514908
0.45000000     0.01570608355    -0.03936177904    -0.06349218572
0.47500000     0.01672333604    -0.04171038883    -0.06675927423
0.50000000     0.01775380563    -0.04405721637    -0.06993742080
0.52500000     0.01879713873    -0.04639926297    -0.07301779021
0.55000000     0.01985297245    -0.04873351267    -0.07599172972
0.57500000     0.02092093468    -0.05105693622    -0.07885079256
0.60000000     0.02200064427    -0.05336649498    -0.08158676105
0.62500000     0.02309171110    -0.05565914493    -0.08419166915
0.65000000     0.02419373630    -0.05793184061    -0.08665782453
0.67500000     0.02530631238    -0.06018153923    -0.08897782999
0.70000000     0.02642902335    -0.06240520464    -0.09114460427
0.72500000     0.02756144492    -0.06459981138    -0.09315140206
0.75000000     0.02870314468    -0.06676234880    -0.09499183329
0.77500000     0.02985368221    -0.06888982502    -0.09665988155
0.80000000     0.03101260933    -0.07097927108    -0.09814992166
0.82500000     0.03217947023    -0.07302774488    -0.09945673628
0.85000000     0.03335380168    -0.07503233527     -0.1005755315
0.87500000     0.03453513321    -0.07699016601     -0.1015019517
0.90000000     0.03572298732    -0.07889839976     -0.1022320926
0.92500000     0.03691687966    -0.08075424203     -0.1027625142
0.95000000     0.03811631927    -0.08255494502     -0.1030902518
0.97500000     0.03932080873    -0.08429781155     -0.1032128264
 1.0000000     0.04052984444    -0.08598019883     -0.1031282531
 1.0250000     0.04174291680    -0.08759952221     -0.1028350494
 1.0500000     0.04295951042    -0.08915325888     -0.1023322411
 1.0750000     0.04417910440    -0.09063895151     -0.1016193677
 1.1000000     0.04540117248    -0.09205421178     -0.1006964862
 1.1250000     0.04662518337    -0.09339672390    -0.09956417369
 1.1500000     0.04785060089    -0.09466424799    -0.09822352840
 1.1750000     0.04907688428    -0.09585462341    -0.09667616961
 1.2000000     0.05030348841    -0.09696577197    -0.09492423623
 1.2250000     0.05152986405    -0.09799570110    -0.09297038394
 1.2500000     0.05275545810    -0.09894250689    -0.09081778103
 1.2750000     0.05397971384    -0.09980437698    -0.08847010294
 1.3000000     0.05520207122     -0.1005795934    -0.08593152544
 1.3250000     0.05642196710     -0.1012665354    -0.08320671653
 1.3500000     0.05763883551     -0.1018636819    -0.08030082698
 1.3750000     0.05885210789     -0.1023696139    -0.07721947971
 1.4000000     0.06006121342     -0.1027830172    -0.07396875781
 1.4250000     0.06126557925     -0.1031026844    -0.07055519140
 1.4500000     0.06246463076     -0.1033275167    -0.06698574327
 1.4750000     0.06365779188     -0.1034565265    -0.06326779335
 1.5000000     0.06484448530     -0.1034888389    -0.05940912212
 1.5250000     0.06602413283     -0.1034236932    -0.05541789282
 1.5500000     0.06719615561     -0.1032604449    -0.05130263269
 1.5750000     0.06835997444     -0.1029985666    -0.04707221323
 1.6000000     0.06951501001     -0.1026376499    -0.04273582944
 1.6250000     0.07066068326     -0.1021774058    -0.03830297818
 1.6500000     0.07179641560     -0.1016176663    -0.03378343573
 1.6750000     0.07292162921     -0.1009583847    -0.02918723447
 1.7000000     0.07403574736     -0.1001996365    -0.02452463890
 1.7250000     0.07513819466    -0.09934162014    -0.01980612092
 1.7500000     0.07622839738    -0.09838465675    -0.01504233452
 1.7750000     0.07730578372    -0.09732919080    -0.01024408992
 1.8000000     0.07836978408    -0.09617578999   -0.005422327219
 1.8250000     0.07941983142    -0.09492514509  -0.0005880896042
 1.8500000     0.08045536147    -0.09357806966    0.004247503797
 1.8750000     0.08147581306    -0.09213549961    0.009073285336
 1.9000000     0.08248062842    -0.09059849256     0.01387806649
 1.9250000     0.08346925344    -0.08896822708     0.01865066568
 1.9500000     0.08444113797    -0.08724600177     0.02337993610
 1.9750000     0.08539573611    -0.08543323412     0.02805479365
 2.0000000     0.08633250651    -0.08353145930     0.03266424475
 2.0250000     0.08725091264    -0.08154232874     0.03719741400
 2.0500000     0.08815042306    -0.07946760856     0.04164357165
 2.0750000     0.08903051175    -0.07730917785     0.04599216086
 2.1000000     0.08989065834    -0.07506902681     0.05023282449
 2.1250000     0.09073034842    -0.07274925471     0.05435543157
 2.1500000     0.09154907382    -0.07035206775     0.05835010323
 2.1750000     0.09234633287    -0.06787977673     0.06220723814
 2.2000000     0.09312163071    -0.06533479457     0.06591753721
 2.2250000     0.09387447951    -0.06271963376     0.06947202774
 2.2500000     0.09460439877    -0.06003690356     0.07286208675
 2.2750000     0.09531091560    -0.05728930719     0.07607946351
 2.3000000     0.09599356497    -0.05447963878     0.07911630116
 2.3250000     0.09665188996    -0.05161078027     0.08196515750
 2.3500000     0.09728544205    -0.04868569814     0.08461902472
 2.3750000     0.09789378134    -0.04570744004     0.08707134809
 2.4000000     0.09847647684    -0.04267913127     0.08931604359
 2.4250000     0.09903310671    -0.03960397124     0.09134751442
 2.4500000     0.09956325847    -0.03648522969     0.09316066628
 2.4750000      0.1000665293    -0.03332624291     0.09475092148
 2.5000000      0.1005425263    -0.03013040983     0.09611423174
 2.5250000      0.1009908665    -0.02690118797     0.09724708973
 2.5500000      0.1014111774    -0.02364208940     0.09814653926
 2.5750000      0.1018030972    -0.02035667653     0.09881018411
 2.6000000      0.1021662746    -0.01704855782     0.09923619549
 2.6250000      0.1025003695    -0.01372138351     0.09942331807
 2.6500000      0.1028050529    -0.01037884115     0.09937087457
 2.6750000      0.1030800075   -0.007024651200     0.09907876899
 2.7000000      0.1033249272   -0.003662562445     0.09854748825
 2.7250000      0.1035395182  -0.0002963474647     0.09777810249
 2.7500000      0.1037234983    0.003070202006     0.09677226385
 2.7750000      0.1038765978    0.006433279732     0.09553220375
 2.8000000      0.1039985594    0.009789069672     0.09406072877
 2.8250000      0.1040891382     0.01313375070     0.09236121506
 2.8500000      0.1041481023     0.01646350134     0.09043760123
 2.8750000      0.1041752324     0.01977450456     0.08829437993
 2.9000000      0.1041703227     0.02306295250     0.08593658792
 2.9250000      0.1041331803     0.02632505124     0.08336979475
 2.9500000      0.1040636258     0.02955702564     0.08060009016
 2.9750000      0.1039614935     0.03275512401     0.07763407006
 3.0000000      0.1038266311     0.03591562293     0.07447882118
 3.0250000      0.1036589003     0.03903483193     0.07114190460
 3.0500000      0.1034581768     0.04210909821     0.06763133783
 3.0750000      0.1032243501     0.04513481131     0.06395557594
 3.1000000      0.1029573242     0.04810840771     0.06012349134
 3.1250000      0.1026570170     0.05102637545     0.05614435257
 3.1500000      0.1023233612     0.05388525861     0.05202780210
 3.1750000      0.1019563037     0.05668166184     0.04778383297
 3.2000000      0.1015558061     0.05941225470     0.04342276471
 3.2250000      0.1011218444     0.06207377606     0.03895521820
 3.2500000      0.1006544097     0.06466303833     0.03439208987
 3.2750000      0.1001535076     0.06717693164     0.02974452502
 3.3000000     0.09961915871     0.06961242796     0.02502389061
 3.3250000     0.09905139843     0.07196658508     0.02024174728
 3.3500000     0.09845027716     0.07423655054     0.01540982097
 3.3750000     0.09781586029     0.07641956540     0.01053997397
 3.4000000     0.09714822824     0.07851296797    0.005644175606
 3.4250000     0.09644747644     0.08051419738   0.0007344726098
 3.4500000     0.09571371542     0.08242079702   -0.004177040764
 3.4750000     0.09494707078     0.08423041795   -0.009078252809
 3.5000000     0.09414768318     0.08594082205    -0.01395706453
 3.5250000     0.09331570838     0.08754988511    -0.01880141981
 3.5500000     0.09245131718     0.08905559983    -0.02359933558
 3.5750000     0.09155469545     0.09045607856    -0.02833893177
 3.6000000     0.09062604407     0.09174955602    -0.03300846114
 3.6250000     0.08966557891     0.09293439179    -0.03759633877
 3.6500000     0.08867353079     0.09400907265    -0.04209117122
 3.6750000     0.08765014543     0.09497221485    -0.04648178522
 3.7000000     0.08659568341     0.09582256612    -0.05075725595
 3.7250000     0.08551042007     0.09655900753    -0.05490693459
 3.7500000     0.08439464548     0.09718055531    -0.05892047535
 3.7750000     0.08324866436     0.09768636232    -0.06278786173
 3.8000000     0.08207279595     0.09807571946    -0.06649943195
 3.8250000     0.08086737400     0.09834805694    -0.07004590365
 3.8500000     0.07963274659     0.09850294526    -0.07341839750
 3.8750000     0.07836927607     0.09854009611    -0.07660846001
 3.9000000     0.07707733894     0.09845936307    -0.07960808512
 3.9250000     0.07575732573     0.09826074213    -0.08240973487
 3.9500000     0.07440964085     0.09794437200    -0.08500635880
 3.9750000     0.07303470250     0.09751053429    -0.08739141219
 4.0000000     0.07163294249     0.09695965349    -0.08955887303
 4.0250000     0.07020480611     0.09629229674    -0.09150325776
 4.0500000     0.06875075197     0.09550917350    -0.09321963559
 4.0750000     0.06727125183     0.09461113492    -0.09470364149
 4.1000000     0.06576679045     0.09359917314    -0.09595148776
 4.1250000     0.06423786541     0.09247442033    -0.09695997418
 4.1500000     0.06268498690     0.09123814764    -0.09772649664
 4.1750000     0.06110867756     0.08989176385    -0.09824905437
 4.2000000     0.05950947229     0.08843681395    -0.09852625551
 4.2250000     0.05788791802     0.08687497751    -0.09855732132
 4.2500000     0.05624457353     0.08520806683    -0.09834208869
 4.2750000     0.05458000919     0.08343802501    -0.09788101124
 4.3000000     0.05289480682     0.08156692377    -0.09717515872
 4.3250000     0.05118955936     0.07959696112    -0.09622621501
 4.3500000     0.04946487073     0.07753045892    -0.09503647440
 4.3750000     0.04772135553     0.07536986019    -0.09360883647
 4.4000000     0.04595963882     0.07311772635    -0.09194679934
 4.4250000     0.04418035587     0.07077673420    -0.09005445142
 4.4500000     0.04238415188     0.06834967289    -0.08793646168
 4.4750000     0.04057168177     0.06583944059    -0.08559806844
 4.5000000     0.03874360985     0.06324904112    -0.08304506666
 4.5250000     0.03690060959     0.06058158041    -0.08028379388
 4.5500000     0.03504336331     0.05784026280    -0.07732111468
 4.5750000     0.03317256194     0.05502838725    -0.07416440390
 4.6000000     0.03128890470     0.05214934336    -0.07082152847
 4.6250000     0.02939309879     0.04920660737    -0.06730082796
 4.6500000     0.02748585916     0.04620373793    -0.06361109403
 4.6750000     0.02556790814     0.04314437183    -0.05976154854
 4.7000000     0.02363997515     0.04003221960    -0.05576182071
 4.7250000     0.02170279642     0.03687106099    -0.05162192313
 4.7500000     0.01975711464     0.03366474042    -0.04735222678
 4.7750000     0.01780367866     0.03041716225    -0.04296343519
 4.8000000     0.01584324314     0.02713228602    -0.03846655760
 4.8250000     0.01387656829     0.02381412162    -0.03387288147
 4.8500000     0.01190441945     0.02046672434    -0.02919394414
 4.8750000    0.009927566817     0.01709418990    -0.02444150387
 4.9000000    0.007946785103     0.01370064941    -0.01962751032
 4.9250000    0.005962853172     0.01029026422    -0.01476407448
 4.9500000    0.003976553713    0.006867220854   -0.009863438157
 4.9750000    0.001988672891    0.003435725730   -0.004937943126
