omega:    5.00000
   rho:            u1:                u2:                 u3:
0.0050000000   2.232999097E-06   3.690024183E-06   4.861042555E-06
0.010000000   8.972806773E-06   1.482027907E-05   1.951379791E-05
0.015000000   2.027510551E-05   3.346085870E-05   4.402148150E-05
0.020000000   3.618809325E-05   5.965463657E-05   7.839184541E-05
0.025000000   5.675236215E-05   9.341695868E-05   0.0001225768250
0.030000000   8.200079270E-05   0.0001347354416   0.0001764725069
0.035000000   0.0001119584634   0.0001835698763   0.0002399194192
0.040000000   0.0001466425766   0.0002398522389   0.0003127031435
0.045000000   0.0001860623998   0.0003034868079   0.0003945552463
0.050000000   0.0002302192237   0.0003743503886   0.0004851545245
0.055000000   0.0002791063364   0.0004522926429   0.0005841285595
0.060000000   0.0003327090138   0.0005371365243   0.0006910555709
0.065000000   0.0003910045266   0.0006286788167   0.0008054665599
0.070000000   0.0004539621637   0.0007266907737   0.0009268477317
0.075000000   0.0005215432715   0.0008309188580    0.001054643181
0.080000000   0.0005937013101   0.0009410855763    0.001188257829
0.085000000   0.0006703819251    0.001056890408    0.001327060590
0.090000000   0.0007515230356    0.001178010824    0.001470387760
0.095000000   0.0008370549378    0.001304103388    0.001617546592
0.10000000   0.0009269004238    0.001434804945    0.001767819052
0.10500000    0.001020974916    0.001569733883    0.001920465733
0.11000000    0.001119186617    0.001708491463    0.002074729891
0.11500000    0.001221436670    0.001850663226    0.002229841596
0.12000000    0.001327619341    0.001995820452    0.002385021968
0.12500000    0.001437622208    0.002143521679    0.002539487469
0.13000000    0.001551326361    0.002293314269    0.002692454236
0.13500000    0.001668606629    0.002444736021    0.002843142421
0.14000000    0.001789331799    0.002597316820    0.002990780516
0.14500000    0.001913364862    0.002750580315    0.003134609642
0.15000000    0.002040563265    0.002904045627    0.003273887775
0.15500000    0.002170779172    0.003057229064    0.003407893880
0.16000000    0.002303859736    0.003209645860    0.003535931936
0.16500000    0.002439647381    0.003360811908    0.003657334825
0.17000000    0.002577980090    0.003510245500    0.003771468065
0.17500000    0.002718691705    0.003657469047    0.003877733367
0.18000000    0.002861612228    0.003802010792    0.003975571987
0.18500000    0.003006568135    0.003943406501    0.004064467865
0.19000000    0.003153382692    0.004081201116    0.004143950533
0.19500000    0.003301876274    0.004214950384    0.004213597758
0.20000000    0.003451866695    0.004344222441    0.004273037932
0.20500000    0.003603169531    0.004468599344    0.004321952177
0.21000000    0.003755598458    0.004587678560    0.004360076152
0.21500000    0.003908965580    0.004701074387    0.004387201571
0.22000000    0.004063081767    0.004808419318    0.004403177401
0.22500000    0.004217756990    0.004909365333    0.004407910746
0.23000000    0.004372800653    0.005003585121    0.004401367414
0.23500000    0.004528021933    0.005090773221    0.004383572156
0.24000000    0.004683230102    0.005170647083    0.004354608583
0.24500000    0.004838234867    0.005242948043    0.004314618760
0.25000000    0.004992846689    0.005307442213    0.004263802477
0.25500000    0.005146877107    0.005363921271    0.004202416209
0.26000000    0.005300139058    0.005412203167    0.004130771761
0.26500000    0.005452447186    0.005452132726    0.004049234618
0.27000000    0.005603618151    0.005483582154    0.003958222002
0.27500000    0.005753470928    0.005506451445    0.003858200644
0.28000000    0.005901827100    0.005520668686    0.003749684304
0.28500000    0.006048511145    0.005526190265    0.003633231019
0.29000000    0.006193350709    0.005523000970    0.003509440138
0.29500000    0.006336176879    0.005511113996    0.003378949121
0.30000000    0.006476824438    0.005490570841    0.003242430144
0.30500000    0.006615132119    0.005461441112    0.003100586530
0.31000000    0.006750942839    0.005423822225    0.002954149007
0.31500000    0.006884103933    0.005377839013    0.002803871839
0.32000000    0.007014467366    0.005323643238    0.002650528832
0.32500000    0.007141889945    0.005261413009    0.002494909250
0.33000000    0.007266233512    0.005191352114    0.002337813658
0.33500000    0.007387365125    0.005113689264    0.002180049713
0.34000000    0.007505157232    0.005028677252    0.002022427936
0.34500000    0.007619487828    0.004936592037    0.001865757478
0.35000000    0.007730240601    0.004837731750    0.001710841904
0.35500000    0.007837305066    0.004732415629    0.001558475027
0.36000000    0.007940576688    0.004620982889    0.001409436806
0.36500000    0.008039956983    0.004503791529    0.001264489330
0.37000000    0.008135353622    0.004381217082    0.001124372916
0.37500000    0.008226680504    0.004253651313   0.0009898023314
0.38000000    0.008313857832    0.004121500870   0.0008614631745
0.38500000    0.008396812165    0.003985185896   0.0007400084163
0.39000000    0.008475476463    0.003845138598   0.0006260551327
0.39500000    0.008549790115    0.003701801796   0.0005201814390
0.40000000    0.008619698962    0.003555627436   0.0004229236428
0.40500000    0.008685155295    0.003407075092   0.0003347736284
0.41000000    0.008746117856    0.003256610447   0.0002561764875
0.41500000    0.008802551813    0.003104703770   0.0001875284044
0.42000000    0.008854428733    0.002951828394   0.0001291748078
0.42500000    0.008901726537    0.002798459184   8.140879635E-05
0.43000000    0.008944429447    0.002645071025   4.446984356E-05
0.43500000    0.008982527925    0.002492137321   1.854278902E-05
0.44000000    0.009016018593    0.002340128506   3.757117437E-06
0.44500000    0.009044904147    0.002189510588   1.865281850E-07
0.45000000    0.009069193269    0.002040743712   7.848795188E-06
0.45500000    0.009088900512    0.001894280766   2.670591579E-05
0.46000000    0.009104046192    0.001750566017   5.666454556E-05
0.46500000    0.009114656266    0.001610033790   9.757671447E-05
0.47000000    0.009120762194    0.001473107198   0.0001492408186
0.47500000    0.009122400807    0.001340196919   0.0002114028794
0.48000000    0.009119614157    0.001211700025   0.0002837580632
0.48500000    0.009112449363    0.001087998870   0.0003659524478
0.49000000    0.009100958451   0.0009694600397   0.0004575850289
0.49500000    0.009085198190   0.0008564333610   0.0005582099503
0.50000000    0.009065229916   0.0007492509799   0.0006673389458
0.50500000    0.009041119359   0.0006482265064   0.0007844439785
0.51000000    0.009012936459   0.0005536542287   0.0009089600615
0.51500000    0.008980755180   0.0004658084007    0.001040288243
0.52000000    0.008944653324   0.0003849426014    0.001177798742
0.52500000    0.008904712332   0.0003112891690    0.001320834209
0.53000000    0.008861017094   0.0002450587102    0.001468713108
0.53500000    0.008813655748   0.0001864396857    0.001620733186
0.54000000    0.008762719483   0.0001355980706    0.001776175017
0.54500000    0.008708302337   9.267709188E-05    0.001934305610
0.55000000    0.008650500992   5.779704091E-05    0.002094382044
0.55500000    0.008589414577   3.105516161E-05    0.002255655134
0.56000000    0.008525144463   1.252561256E-05    0.002417373082
0.56500000    0.008457794061   2.259502640E-06    0.002578785125
0.57000000    0.008387468622   2.849984988E-07    0.002739145133
0.57500000    0.008314275034   6.607502485E-06    0.002897715158
0.58000000    0.008238321627   2.120989919E-05    0.003053768911
0.58500000    0.008159717978   4.405286862E-05    0.003206595150
0.59000000    0.008078574710   7.507526378E-05    0.003355500959
0.59500000    0.007995003309   0.0001141945504    0.003499814916
0.60000000    0.007909115929   0.0001613073059    0.003638890115
0.60500000    0.007821025212   0.0002162897755    0.003772107050
0.61000000    0.007730844103   0.0002789984819    0.003898876334
0.61500000    0.007638685674   0.0003492708859    0.004018641245
0.62000000    0.007544662949   0.0004269260949    0.004130880093
0.62500000    0.007448888740   0.0005117656158    0.004235108391
0.63000000    0.007351475475   0.0006035741489    0.004330880832
0.63500000    0.007252535045   0.0007021204199    0.004417793050
0.64000000    0.007152178647   0.0008071580463    0.004495483174
0.64500000    0.007050516635   0.0009184264339    0.004563633163
0.65000000    0.006947658376    0.001035651701    0.004621969921
0.65500000    0.006843712112    0.001158547628    0.004670266180
0.66000000    0.006738784830    0.001286816621    0.004708341167
0.66500000    0.006632982131    0.001420150702    0.004736061042
0.67000000    0.006526408111    0.001558232502    0.004753339110
0.67500000    0.006419165247    0.001700736270    0.004760135813
0.68000000    0.006311354288    0.001847328886    0.004756458503
0.68500000    0.006203074152    0.001997670876    0.004742360997
0.69000000    0.006094421829    0.002151417426    0.004717942928
0.69500000    0.005985492291    0.002308219395    0.004683348889
0.70000000    0.005876378408    0.002467724320    0.004638767379
0.70500000    0.005767170868    0.002629577403    0.004584429569
0.71000000    0.005657958110    0.002793422501    0.004520607881
0.71500000    0.005548826250    0.002958903081    0.004447614398
0.72000000    0.005439859029    0.003125663174    0.004365799119
0.72500000    0.005331137753    0.003293348294    0.004275548062
0.73000000    0.005222741248    0.003461606341    0.004177281227
0.73500000    0.005114745818    0.003630088476    0.004071450442
0.74000000    0.005007225205    0.003798449968    0.003958537083
0.74500000    0.004900250563    0.003966351009    0.003839049706
0.75000000    0.004793890427    0.004133457499    0.003713521579
0.75500000    0.004688210697    0.004299441800    0.003582508148
0.76000000    0.004583274620    0.004463983445    0.003446584435
0.76500000    0.004479142783    0.004626769823    0.003306342389
0.77000000    0.004375873104    0.004787496820    0.003162388202
0.77500000    0.004273520835    0.004945869418    0.003015339596
0.78000000    0.004172138567    0.005101602259    0.002865823109
0.78500000    0.004071776236    0.005254420170    0.002714471377
0.79000000    0.003972481136    0.005404058640    0.002561920430
0.79500000    0.003874297939    0.005550264264    0.002408807019
0.80000000    0.003777268715    0.005692795138    0.002255765978
0.80500000    0.003681432955    0.005831421219    0.002103427638
0.81000000    0.003586827604    0.005965924634    0.001952415298
0.81500000    0.003493487088    0.006096099960    0.001803342770
0.82000000    0.003401443350    0.006221754451    0.001656812001
0.82500000    0.003310725892    0.006342708230    0.001513410788
0.83000000    0.003221361812    0.006458794439    0.001373710587
0.83500000    0.003133375848    0.006569859352    0.001238264430
0.84000000    0.003046790426    0.006675762446    0.001107604950
0.84500000    0.002961625709    0.006776376432   0.0009822425362
0.85000000    0.002877899643    0.006871587260   0.0008626635985
0.85500000    0.002795628015    0.006961294070   0.0007493289748
0.86000000    0.002714824503    0.007045409126   0.0006426724657
0.86500000    0.002635500734    0.007123857707   0.0005430995091
0.87000000    0.002557666342    0.007196577966   0.0004509859946
0.87500000    0.002481329024    0.007263520762   0.0003666772217
0.88000000    0.002406494600    0.007324649459   0.0002904870009
0.88500000    0.002333167078    0.007379939702   0.0002226969005
0.89000000    0.002261348707    0.007429379157   0.0001635556382
0.89500000    0.002191040048    0.007472967241   0.0001132786168
0.90000000    0.002122240029    0.007510714814   7.204760366E-05
0.90500000    0.002054946012    0.007542643856   4.001055046E-05
0.91000000    0.001989153854    0.007568787129   1.728155261E-05
0.91500000    0.001924857971    0.007589187810   3.940943911E-06
0.92000000    0.001862051400    0.007603899117   3.552360190E-08
0.92500000    0.001800725865    0.007612983913   5.578911488E-06
0.93000000    0.001740871832    0.007616514301   2.055202669E-05
0.93500000    0.001682478581    0.007614571208   4.490368502E-05
0.94000000    0.001625534257    0.007607243951   7.855130964E-05
0.94500000    0.001570025942    0.007594629807   0.0001213817493
0.95000000    0.001515939705    0.007576833565   0.0001732521978
0.95500000    0.001463260669    0.007553967078   0.0002339912092
0.96000000    0.001411973063    0.007526148809   0.0003033998012
0.96500000    0.001362060288    0.007493503379   0.0003812526398
0.97000000    0.001313504964    0.007456161103   0.0004672993004
0.97500000    0.001266288994    0.007414257542   0.0005612655945
0.98000000    0.001220393612    0.007367933041   0.0006628549587
0.98500000    0.001175799440    0.007317332281   0.0007717498963
0.99000000    0.001132486539    0.007262603829   0.0008876134645
0.99500000    0.001090434457    0.007203899695    0.001010090801
 1.0000000    0.001049622284    0.007141374897    0.001138810683
 1.0050000    0.001010028693    0.007075187026    0.001273387108
 1.0100000   0.0009716319920    0.007005495833    0.001413420893
 1.0150000   0.0009344101656    0.006932462808    0.001558501287
 1.0200000   0.0008983409204    0.006856250785    0.001708207584
 1.0250000   0.0008634017263    0.006777023542    0.001862110732
 1.0300000   0.0008295698572    0.006694945431    0.002019774938
 1.0350000   0.0007968224303    0.006610180999    0.002180759253
 1.0400000   0.0007651364433    0.006522894642    0.002344619138
 1.0450000   0.0007344888108    0.006433250255    0.002510908001
 1.0500000   0.0007048563989    0.006341410906    0.002679178708
 1.0550000   0.0006762160579    0.006247538522    0.002848985046
 1.0600000   0.0006485446541    0.006151793588    0.003019883161
 1.0650000   0.0006218190999    0.006054334860    0.003191432931
 1.0700000   0.0005960163823    0.005955319094    0.003363199303
 1.0750000   0.0005711135899    0.005854900792    0.003534753571
 1.0800000   0.0005470879390    0.005753231958    0.003705674598
 1.0850000   0.0005239167973    0.005650461874    0.003875549976
 1.0900000   0.0005015777073    0.005546736890    0.004043977128
 1.0950000   0.0004800484073    0.005442200226    0.004210564341
 1.1000000   0.0004593068519    0.005336991795    0.004374931731
 1.1050000   0.0004393312306    0.005231248035    0.004536712146
 1.1100000   0.0004200999855    0.005125101761    0.004695551995
 1.1150000   0.0004015918273    0.005018682025    0.004851112004
 1.1200000   0.0003837857505    0.004912114001    0.005003067908
 1.1250000   0.0003666610474    0.004805518870    0.005151111063
 1.1300000   0.0003501973202    0.004699013732    0.005294948995
 1.1350000   0.0003343744931    0.004592711523    0.005434305872
 1.1400000   0.0003191728225    0.004486720949    0.005568922905
 1.1450000   0.0003045729065    0.004381146432    0.005698558688
 1.1500000   0.0002905556928    0.004276088066    0.005822989454
 1.1550000   0.0002771024868    0.004171641590    0.005942009282
 1.1600000   0.0002641949574    0.004067898367    0.006055430221
 1.1650000   0.0002518151430    0.003964945378    0.006163082364
 1.1700000   0.0002399454556    0.003862865225    0.006264813849
 1.1750000   0.0002285686852    0.003761736141    0.006360490811
 1.1800000   0.0002176680023    0.003661632018    0.006449997266
 1.1850000   0.0002072269602    0.003562622433    0.006533234944
 1.1900000   0.0001972294970    0.003464772694    0.006610123074
 1.1950000   0.0001876599358    0.003368143885    0.006680598114
 1.2000000   0.0001785029850    0.003272792923    0.006744613432
 1.2050000   0.0001697437381    0.003178772622    0.006802138947
 1.2100000   0.0001613676727    0.003086131763    0.006853160728
 1.2150000   0.0001533606481    0.002994915168    0.006897680557
 1.2200000   0.0001457089044    0.002905163784    0.006935715445
 1.2250000   0.0001383990589    0.002816914770    0.006967297133
 1.2300000   0.0001314181034    0.002730201587    0.006992471548
 1.2350000   0.0001247534007    0.002645054095    0.007011298244
 1.2400000   0.0001183926808    0.002561498653    0.007023849811
 1.2450000   0.0001123240366    0.002479558221    0.007030211273
 1.2500000   0.0001065359189    0.002399252466    0.007030479454
 1.2550000   0.0001010171324    0.002320597873    0.007024762349
 1.2600000   9.575682954E-05    0.002243607852    0.007013178464
 1.2650000   9.074450567E-05    0.002168292850    0.006995856160
 1.2700000   8.596999318E-05    0.002094660470    0.006972932984
 1.2750000   8.142345563E-05    0.002022715580    0.006944554999
 1.2800000   7.709538170E-05    0.001952460431    0.006910876112
 1.2850000   7.297657893E-05    0.001883894771    0.006872057404
 1.2900000   6.905816736E-05    0.001817015962    0.006828266458
 1.2950000   6.533157302E-05    0.001751819094    0.006779676699
 1.3000000   6.178852136E-05    0.001688297101    0.006726466743
 1.3050000   5.842103049E-05    0.001626440875    0.006668819742
 1.3100000   5.522140450E-05    0.001566239376    0.006606922758
 1.3150000   5.218222661E-05    0.001507679746    0.006540966138
 1.3200000   4.929635232E-05    0.001450747418    0.006471142907
 1.3250000   4.655690257E-05    0.001395426225    0.006397648177
 1.3300000   4.395725685E-05    0.001341698504    0.006320678574
 1.3350000   4.149104634E-05    0.001289545203    0.006240431680
 1.3400000   3.915214705E-05    0.001238945982    0.006157105501
 1.3450000   3.693467302E-05    0.001189879309    0.006070897946
 1.3500000   3.483296951E-05    0.001142322563    0.005982006340
 1.3550000   3.284160630E-05    0.001096252123    0.005890626944
 1.3600000   3.095537102E-05    0.001051643464    0.005796954509
 1.3650000   2.916926253E-05    0.001008471241    0.005701181852
 1.3700000   2.747848441E-05   0.0009667093799    0.005603499447
 1.3750000   2.587843852E-05   0.0009263311571    0.005504095050
 1.3800000   2.436471864E-05   0.0008873092809    0.005403153341
 1.3850000   2.293310421E-05   0.0008496159682    0.005300855595
 1.3900000   2.157955422E-05   0.0008132230186    0.005197379372
 1.3950000   2.030020108E-05   0.0007781018850    0.005092898234
 1.4000000   1.909134479E-05   0.0007442237419    0.004987581487
 1.4050000   1.794944702E-05   0.0007115595497    0.004881593942
 1.4100000   1.687112548E-05   0.0006800801164    0.004775095705
 1.4150000   1.585314829E-05   0.0006497561570    0.004668241981
 1.4200000   1.489242854E-05   0.0006205583479    0.004561182911
 1.4250000   1.398601896E-05   0.0005924573808    0.004454063426
 1.4300000   1.313110671E-05   0.0005654240117    0.004347023117
 1.4350000   1.232500828E-05   0.0005394291078    0.004240196133
 1.4400000   1.156516460E-05   0.0005144436919    0.004133711097
 1.4450000   1.084913614E-05   0.0004904389831    0.004027691042
 1.4500000   1.017459828E-05   0.0004673864357    0.003922253359
 1.4550000   9.539336724E-06   0.0004452577746    0.003817509772
 1.4600000   8.941243083E-06   0.0004240250291    0.003713566327
 1.4650000   8.378310562E-06   0.0004036605628    0.003610523391
 1.4700000   7.848629798E-06   0.0003841371026    0.003508475677
 1.4750000   7.350384808E-06   0.0003654277642    0.003407512274
 1.4800000   6.881849073E-06   0.0003475060756    0.003307716697
 1.4850000   6.441381743E-06   0.0003303459987    0.003209166947
 1.4900000   6.027423968E-06   0.0003139219483    0.003111935582
 1.4950000   5.638495348E-06   0.0002982088095    0.003016089805
 1.5000000   5.273190501E-06   0.0002831819525    0.002921691553
 1.5050000   4.930175756E-06   0.0002688172464    0.002828797603
 1.5100000   4.608185954E-06   0.0002550910701    0.002737459688
 1.5150000   4.306021367E-06   0.0002419803226    0.002647724609
 1.5200000   4.022544726E-06   0.0002294624309    0.002559634372
 1.5250000   3.756678361E-06   0.0002175153564    0.002473226316
 1.5300000   3.507401444E-06   0.0002061176003    0.002388533252
